# #Atacama, pwv = 1000, elev = 50
# # Frequency(GHz)   T_b (K)
1.000000000000000000e+00 8.410166000000000031e-01 9.966603000000000545e-01
1.199999999999999956e+00 8.598592999999999931e-01 9.966047999999999574e-01
1.399999999999999911e+00 8.736933000000000060e-01 9.965688999999999798e-01
1.600000000000000089e+00 8.847783999999999649e-01 9.965435999999999739e-01
1.800000000000000044e+00 8.942546999999999580e-01 9.965245999999999826e-01
2.000000000000000000e+00 9.027479000000000475e-01 9.965093000000000423e-01
2.200000000000000178e+00 9.106227999999999545e-01 9.964963999999999489e-01
2.399999999999999911e+00 9.181036999999999670e-01 9.964849000000000068e-01
2.600000000000000089e+00 9.253369000000000177e-01 9.964743000000000350e-01
2.799999999999999822e+00 9.323892999999999764e-01 9.964644000000000279e-01
3.000000000000000000e+00 9.393618000000000245e-01 9.964547000000000265e-01
3.200000000000000178e+00 9.462907999999999875e-01 9.964450999999999725e-01
3.399999999999999911e+00 9.532116999999999951e-01 9.964355000000000295e-01
3.600000000000000089e+00 9.601517000000000523e-01 9.964258000000000282e-01
3.799999999999999822e+00 9.671319000000000443e-01 9.964157999999999626e-01
4.000000000000000000e+00 9.741695999999999689e-01 9.964055000000000550e-01
4.200000000000000178e+00 9.812794000000000239e-01 9.963948999999999723e-01
4.400000000000000355e+00 9.884741999999999695e-01 9.963838999999999890e-01
4.599999999999999645e+00 9.957658000000000342e-01 9.963724000000000469e-01
4.799999999999999822e+00 1.003165000000000084e+00 9.963604999999999823e-01
5.000000000000000000e+00 1.010707000000000022e+00 9.963478999999999530e-01
5.200000000000000178e+00 1.018304000000000098e+00 9.963351000000000290e-01
5.400000000000000355e+00 1.026029000000000080e+00 9.963218000000000352e-01
5.599999999999999645e+00 1.033843999999999985e+00 9.963079999999999714e-01
5.799999999999999822e+00 1.041676000000000046e+00 9.962940999999999603e-01
6.000000000000000000e+00 1.049541000000000057e+00 9.962800000000000544e-01
6.200000000000000178e+00 1.057469999999999910e+00 9.962657000000000318e-01
6.400000000000000355e+00 1.065492000000000106e+00 9.962509000000000503e-01
6.599999999999999645e+00 1.073622999999999994e+00 9.962355999999999989e-01
6.799999999999999822e+00 1.081882999999999928e+00 9.962197999999999887e-01
7.000000000000000000e+00 1.090281000000000056e+00 9.962033999999999612e-01
7.200000000000000178e+00 1.098824000000000023e+00 9.961864000000000274e-01
7.400000000000000355e+00 1.107515999999999945e+00 9.961687000000000181e-01
7.599999999999999645e+00 1.116365000000000052e+00 9.961505000000000498e-01
7.799999999999999822e+00 1.125377000000000072e+00 9.961314999999999475e-01
8.000000000000000000e+00 1.134559000000000095e+00 9.961117999999999917e-01
8.199999999999999289e+00 1.143920000000000048e+00 9.960913999999999602e-01
8.400000000000000355e+00 1.153467000000000020e+00 9.960702000000000167e-01
8.599999999999999645e+00 1.163216000000000028e+00 9.960480999999999918e-01
8.800000000000000711e+00 1.173208000000000029e+00 9.960250999999999966e-01
9.000000000000000000e+00 1.183745999999999965e+00 9.959995999999999849e-01
9.199999999999999289e+00 1.209151000000000087e+00 9.959122999999999726e-01
9.400000000000000355e+00 1.204625000000000057e+00 9.959499000000000546e-01
9.599999999999999645e+00 1.215058999999999889e+00 9.959253000000000133e-01
9.800000000000000711e+00 1.226172999999999957e+00 9.958976000000000495e-01
1.000000000000000000e+01 1.238139000000000101e+00 9.958660999999999763e-01
1.019999999999999929e+01 1.260864999999999903e+00 9.957875999999999950e-01
1.040000000000000036e+01 1.261244000000000032e+00 9.958067999999999920e-01
1.059999999999999964e+01 1.271741999999999928e+00 9.957821000000000033e-01
1.080000000000000071e+01 1.282542000000000071e+00 9.957557000000000214e-01
1.100000000000000000e+01 1.298899000000000026e+00 9.957046999999999981e-01
1.119999999999999929e+01 1.307158000000000042e+00 9.956897999999999582e-01
1.140000000000000036e+01 1.316109999999999891e+00 9.956720999999999488e-01
1.159999999999999964e+01 1.327420999999999962e+00 9.956439999999999735e-01
1.180000000000000071e+01 1.339315999999999951e+00 9.956131999999999760e-01
1.200000000000000000e+01 1.351569000000000020e+00 9.955810000000000493e-01
1.219999999999999929e+01 1.364084999999999992e+00 9.955477999999999827e-01
1.240000000000000036e+01 1.376892000000000005e+00 9.955133000000000454e-01
1.259999999999999964e+01 1.390022000000000091e+00 9.954775999999999625e-01
1.280000000000000071e+01 1.403386999999999940e+00 9.954408999999999619e-01
1.300000000000000000e+01 1.417105999999999977e+00 9.954028999999999794e-01
1.319999999999999929e+01 1.431154999999999955e+00 9.953634999999999566e-01
1.340000000000000036e+01 1.445538999999999907e+00 9.953227999999999520e-01
1.359999999999999964e+01 1.460258999999999974e+00 9.952807999999999655e-01
1.380000000000000071e+01 1.475322999999999940e+00 9.952374999999999972e-01
1.400000000000000000e+01 1.490780999999999912e+00 9.951925999999999828e-01
1.419999999999999929e+01 1.506677000000000044e+00 9.951459999999999750e-01
1.440000000000000036e+01 1.523109000000000046e+00 9.950972000000000151e-01
1.459999999999999964e+01 1.540407999999999999e+00 9.950447999999999515e-01
1.480000000000000071e+01 1.563272999999999913e+00 9.949681000000000219e-01
1.500000000000000000e+01 1.577042000000000055e+00 9.949318999999999802e-01
1.519999999999999929e+01 1.593598999999999988e+00 9.948839999999999906e-01
1.540000000000000036e+01 1.612308999999999992e+00 9.948266999999999527e-01
1.559999999999999964e+01 1.631993000000000027e+00 9.947656000000000276e-01
1.580000000000000071e+01 1.652627999999999986e+00 9.947006000000000459e-01
1.600000000000000000e+01 1.674987999999999921e+00 9.946283999999999681e-01
1.619999999999999929e+01 1.703602000000000061e+00 9.945294999999999552e-01
1.639999999999999858e+01 1.719818000000000069e+00 9.944855999999999696e-01
1.660000000000000142e+01 1.743670999999999971e+00 9.944087999999999816e-01
1.680000000000000071e+01 1.769287999999999972e+00 9.943250000000000144e-01
1.700000000000000000e+01 1.796268999999999894e+00 9.942360000000000086e-01
1.719999999999999929e+01 1.825005999999999906e+00 9.941402999999999768e-01
1.739999999999999858e+01 1.855628999999999973e+00 9.940373000000000125e-01
1.760000000000000142e+01 1.888409000000000004e+00 9.939261999999999819e-01
1.780000000000000071e+01 1.923710000000000031e+00 9.938053999999999499e-01
1.800000000000000000e+01 1.961802000000000046e+00 9.936739999999999462e-01
1.819999999999999929e+01 2.003283999999999843e+00 9.935296000000000127e-01
1.839999999999999858e+01 2.048719999999999875e+00 9.933703000000000394e-01
1.860000000000000142e+01 2.098840000000000039e+00 9.931929999999999925e-01
1.880000000000000071e+01 2.154500000000000082e+00 9.929947000000000079e-01
1.900000000000000000e+01 2.216833999999999971e+00 9.927709000000000117e-01
1.919999999999999929e+01 2.287204000000000015e+00 9.925163000000000180e-01
1.939999999999999858e+01 2.367335999999999885e+00 9.922244999999999537e-01
1.960000000000000142e+01 2.459385000000000154e+00 9.918869999999999632e-01
1.980000000000000071e+01 2.566037999999999819e+00 9.914935000000000276e-01
2.000000000000000000e+01 2.690662999999999805e+00 9.910307999999999895e-01
2.019999999999999929e+01 2.837380000000000013e+00 9.904830000000000023e-01
2.039999999999999858e+01 3.011355000000000004e+00 9.898299000000000403e-01
2.060000000000000142e+01 3.218456000000000206e+00 9.890484000000000497e-01
2.080000000000000071e+01 3.465905999999999931e+00 9.881096000000000323e-01
2.100000000000000000e+01 3.761000000000000121e+00 9.869837999999999667e-01
2.119999999999999929e+01 4.109275000000000233e+00 9.856471999999999456e-01
2.139999999999999858e+01 4.510959999999999859e+00 9.840951999999999478e-01
2.160000000000000142e+01 4.954641999999999769e+00 9.823673000000000544e-01
2.180000000000000071e+01 5.408077999999999719e+00 9.805846000000000284e-01
2.200000000000000000e+01 5.809974999999999667e+00 9.789856999999999587e-01
2.219999999999999929e+01 6.106113999999999820e+00 9.777812000000000170e-01
2.239999999999999858e+01 6.057032999999999667e+00 9.780313999999999952e-01
2.260000000000000142e+01 5.839904999999999902e+00 9.789444999999999952e-01
2.280000000000000071e+01 5.521841000000000221e+00 9.802378000000000480e-01
2.300000000000000000e+01 5.171304000000000123e+00 9.816405000000000269e-01
2.319999999999999929e+01 4.833090000000000330e+00 9.829807999999999879e-01
2.339999999999999858e+01 4.529707000000000150e+00 9.841754999999999809e-01
2.360000000000000142e+01 4.270036000000000165e+00 9.851931999999999912e-01
2.380000000000000071e+01 4.069270000000000387e+00 9.859683999999999671e-01
2.400000000000000000e+01 3.873209999999999820e+00 9.867437999999999487e-01
2.419999999999999929e+01 3.718357999999999830e+00 9.873541999999999597e-01
2.439999999999999858e+01 3.596337000000000117e+00 9.878337999999999841e-01
2.460000000000000142e+01 3.498486999999999902e+00 9.882189999999999586e-01
2.480000000000000071e+01 3.420358999999999927e+00 9.885277999999999565e-01
2.500000000000000000e+01 3.358792999999999918e+00 9.887721999999999900e-01
2.519999999999999929e+01 3.310986000000000207e+00 9.889636000000000537e-01
2.539999999999999858e+01 3.273530000000000051e+00 9.891157000000000421e-01
2.560000000000000142e+01 3.259234000000000187e+00 9.891704999999999526e-01
2.580000000000000071e+01 3.225858999999999810e+00 9.893151999999999502e-01
2.600000000000000000e+01 3.208371999999999780e+00 9.893939000000000483e-01
2.619999999999999929e+01 3.199678000000000022e+00 9.894366999999999468e-01
2.639999999999999858e+01 3.196553999999999895e+00 9.894576999999999956e-01
2.660000000000000142e+01 3.197966999999999782e+00 9.894612000000000407e-01
2.680000000000000071e+01 3.203235999999999972e+00 9.894498000000000459e-01
2.700000000000000000e+01 3.211781999999999915e+00 9.894258000000000219e-01
2.719999999999999929e+01 3.223298000000000219e+00 9.893902999999999448e-01
2.739999999999999858e+01 3.238183999999999951e+00 9.893414999999999848e-01
2.760000000000000142e+01 3.254633000000000109e+00 9.892870999999999748e-01
2.780000000000000071e+01 3.274100999999999928e+00 9.892206000000000055e-01
2.800000000000000000e+01 3.294627999999999890e+00 9.891505999999999910e-01
2.819999999999999929e+01 3.317241999999999802e+00 9.890723999999999627e-01
2.839999999999999858e+01 3.342420000000000169e+00 9.889839000000000269e-01
2.860000000000000142e+01 3.369982999999999951e+00 9.888854999999999729e-01
2.880000000000000071e+01 3.402829999999999799e+00 9.887643000000000404e-01
2.900000000000000000e+01 3.456964000000000148e+00 9.885504999999999987e-01
2.919999999999999929e+01 3.461774999999999824e+00 9.885553000000000257e-01
2.939999999999999858e+01 3.493152999999999953e+00 9.884435999999999778e-01
2.960000000000000142e+01 3.528475999999999946e+00 9.883146000000000431e-01
2.980000000000000071e+01 3.569446999999999814e+00 9.881605999999999446e-01
3.000000000000000000e+01 3.656378000000000128e+00 9.878025999999999751e-01
3.019999999999999929e+01 3.713347999999999871e+00 9.875836999999999533e-01
3.039999999999999858e+01 3.689280000000000115e+00 9.877177999999999791e-01
3.060000000000000142e+01 3.729093999999999909e+00 9.875730000000000341e-01
3.080000000000000071e+01 3.759996999999999812e+00 9.874684000000000239e-01
3.100000000000000000e+01 3.801188999999999929e+00 9.873180999999999763e-01
3.119999999999999929e+01 3.844815000000000094e+00 9.871573000000000153e-01
3.139999999999999858e+01 3.890054999999999819e+00 9.869898000000000282e-01
3.160000000000000142e+01 3.936749999999999972e+00 9.868164000000000380e-01
3.180000000000000071e+01 3.984853000000000200e+00 9.866373000000000504e-01
3.200000000000000000e+01 4.034400999999999904e+00 9.864522000000000013e-01
3.220000000000000284e+01 4.085206000000000337e+00 9.862621000000000304e-01
3.239999999999999858e+01 4.137215000000000309e+00 9.860672000000000326e-01
3.260000000000000142e+01 4.190796999999999883e+00 9.858658000000000143e-01
3.279999999999999716e+01 4.245814000000000199e+00 9.856584999999999930e-01
3.300000000000000000e+01 4.302035000000000053e+00 9.854465000000000030e-01
3.320000000000000284e+01 4.359765000000000335e+00 9.852282999999999458e-01
3.339999999999999858e+01 4.419057999999999709e+00 9.850037000000000376e-01
3.360000000000000142e+01 4.479903000000000191e+00 9.847728000000000037e-01
3.379999999999999716e+01 4.542135000000000034e+00 9.845363000000000309e-01
3.400000000000000000e+01 4.606052000000000035e+00 9.842929000000000261e-01
3.420000000000000284e+01 4.671617000000000353e+00 9.840427999999999953e-01
3.439999999999999858e+01 4.738831000000000238e+00 9.837858999999999909e-01
3.460000000000000142e+01 4.807818000000000147e+00 9.835218000000000016e-01
3.479999999999999716e+01 4.878749000000000002e+00 9.832497000000000043e-01
3.500000000000000000e+01 4.951622999999999664e+00 9.829695000000000515e-01
3.520000000000000284e+01 5.025902000000000314e+00 9.826837999999999962e-01
3.539999999999999858e+01 5.102559000000000289e+00 9.823882000000000447e-01
3.560000000000000142e+01 5.181957999999999842e+00 9.820809000000000344e-01
3.579999999999999716e+01 5.266238999999999670e+00 9.817521999999999638e-01
3.600000000000000000e+01 5.416553999999999647e+00 9.811347000000000262e-01
3.620000000000000284e+01 5.436103000000000129e+00 9.810921999999999699e-01
3.639999999999999858e+01 5.516704999999999970e+00 9.807837000000000360e-01
3.660000000000000142e+01 5.604606999999999672e+00 9.804429000000000061e-01
3.679999999999999716e+01 5.695861999999999981e+00 9.800879000000000119e-01
3.700000000000000000e+01 5.790112999999999843e+00 9.797202999999999884e-01
3.720000000000000284e+01 5.887520999999999560e+00 9.793393999999999711e-01
3.739999999999999858e+01 5.988952000000000275e+00 9.789413000000000142e-01
3.760000000000000142e+01 6.098904000000000103e+00 9.785053000000000223e-01
3.779999999999999716e+01 6.308741000000000376e+00 9.776280000000000525e-01
3.800000000000000000e+01 6.319612000000000229e+00 9.776344000000000145e-01
3.820000000000000284e+01 6.416434999999999889e+00 9.772634000000000043e-01
3.839999999999999858e+01 6.527344000000000257e+00 9.768293000000000115e-01
3.860000000000000142e+01 6.643676000000000137e+00 9.763718999999999593e-01
3.879999999999999716e+01 6.764217000000000368e+00 9.758968000000000087e-01
3.900000000000000000e+01 6.889045999999999559e+00 9.754036999999999846e-01
3.920000000000000284e+01 7.018424999999999692e+00 9.748915999999999693e-01
3.939999999999999858e+01 7.156854000000000049e+00 9.743406999999999485e-01
3.960000000000000142e+01 7.286455000000000126e+00 9.738303999999999849e-01
3.979999999999999716e+01 7.425848000000000226e+00 9.732781000000000349e-01
4.000000000000000000e+01 7.570612999999999815e+00 9.727033999999999958e-01
4.020000000000000284e+01 7.720195999999999614e+00 9.721087000000000478e-01
4.039999999999999858e+01 7.874645000000000117e+00 9.714941000000000271e-01
4.060000000000000142e+01 8.034190999999999860e+00 9.708584000000000103e-01
4.079999999999999716e+01 8.199073999999999529e+00 9.702007999999999743e-01
4.100000000000000000e+01 8.369220999999999577e+00 9.695217000000000418e-01
4.120000000000000284e+01 8.545253999999999905e+00 9.688181999999999627e-01
4.139999999999999858e+01 8.727569000000000798e+00 9.680889999999999773e-01
4.160000000000000142e+01 8.915862000000000620e+00 9.673351000000000033e-01
4.179999999999999716e+01 9.111122999999999195e+00 9.665525000000000366e-01
4.200000000000000000e+01 9.313489999999999824e+00 9.657405999999999491e-01
4.220000000000000284e+01 9.523092000000000112e+00 9.648989999999999512e-01
4.239999999999999858e+01 9.741854999999999265e+00 9.640189000000000119e-01
4.260000000000000142e+01 9.971011999999999986e+00 9.630946999999999703e-01
4.279999999999999716e+01 1.025582999999999956e+01 9.619267000000000234e-01
4.300000000000000000e+01 1.045224999999999937e+01 9.611541000000000112e-01
4.320000000000000284e+01 1.069893000000000072e+01 9.601631000000000471e-01
4.339999999999999858e+01 1.096278000000000041e+01 9.590965999999999658e-01
4.360000000000000142e+01 1.129598999999999975e+01 9.577223000000000264e-01
4.379999999999999716e+01 1.153354999999999997e+01 9.567833000000000032e-01
4.400000000000000000e+01 1.180668999999999969e+01 9.556907999999999515e-01
4.420000000000000284e+01 1.210828000000000060e+01 9.544738999999999862e-01
4.439999999999999858e+01 1.242623999999999995e+01 9.531878999999999769e-01
4.460000000000000142e+01 1.276027000000000022e+01 9.518345999999999751e-01
4.479999999999999716e+01 1.312018999999999913e+01 9.503700999999999954e-01
4.500000000000000000e+01 1.347380000000000067e+01 9.489408000000000287e-01
4.520000000000000284e+01 1.384638999999999953e+01 9.474329999999999696e-01
4.539999999999999858e+01 1.424151999999999951e+01 9.458301999999999543e-01
4.560000000000000142e+01 1.465531000000000006e+01 9.441505000000000036e-01
4.579999999999999716e+01 1.508905999999999992e+01 9.423888999999999738e-01
4.600000000000000000e+01 1.554420999999999964e+01 9.405392000000000197e-01
4.620000000000000284e+01 1.602155000000000129e+01 9.385987000000000080e-01
4.639999999999999858e+01 1.652251000000000047e+01 9.365613999999999884e-01
4.660000000000000142e+01 1.704946999999999946e+01 9.344173999999999536e-01
4.679999999999999716e+01 1.760387000000000057e+01 9.321610000000000174e-01
4.700000000000000000e+01 1.818770999999999916e+01 9.297841000000000022e-01
4.720000000000000284e+01 1.880342999999999876e+01 9.272766999999999538e-01
4.739999999999999858e+01 1.945345000000000013e+01 9.246288000000000284e-01
4.760000000000000142e+01 2.014050999999999902e+01 9.218294999999999684e-01
4.779999999999999716e+01 2.086769999999999925e+01 9.188661000000000190e-01
4.800000000000000000e+01 2.163845999999999847e+01 9.157245999999999997e-01
4.820000000000000284e+01 2.245666999999999902e+01 9.123894000000000171e-01
4.839999999999999858e+01 2.332686999999999955e+01 9.088418999999999803e-01
4.860000000000000142e+01 2.425349999999999895e+01 9.050643000000000438e-01
4.879999999999999716e+01 2.524321000000000126e+01 9.010295999999999861e-01
4.900000000000000000e+01 2.630095999999999989e+01 8.967178999999999567e-01
4.920000000000000284e+01 2.743554999999999922e+01 8.920934999999999837e-01
4.939999999999999858e+01 2.865659000000000134e+01 8.871170000000000444e-01
4.960000000000000142e+01 2.997171000000000163e+01 8.817587000000000064e-01
4.979999999999999716e+01 3.139816000000000074e+01 8.759466999999999670e-01
5.000000000000000000e+01 3.298152000000000328e+01 8.694836000000000231e-01
5.020000000000000284e+01 3.463976999999999862e+01 8.627466999999999775e-01
5.039999999999999858e+01 3.649172999999999689e+01 8.552199000000000328e-01
5.060000000000000142e+01 3.852908999999999651e+01 8.469527999999999501e-01
5.079999999999999716e+01 4.081687999999999761e+01 8.376717000000000191e-01
5.100000000000000000e+01 4.358061000000000007e+01 8.263968999999999898e-01
5.120000000000000284e+01 4.630499999999999972e+01 8.154451000000000338e-01
5.139999999999999858e+01 4.974072000000000315e+01 8.015071000000000279e-01
5.160000000000000142e+01 5.361428000000000083e+01 7.858545999999999587e-01
5.179999999999999716e+01 5.806130999999999887e+01 7.679521999999999737e-01
5.200000000000000000e+01 6.461947999999999581e+01 7.408660999999999719e-01
5.220000000000000284e+01 6.957442000000000348e+01 7.215679000000000398e-01
5.239999999999999858e+01 7.729595000000000482e+01 6.902983000000000313e-01
5.260000000000000142e+01 8.701493000000000677e+01 6.505425000000000235e-01
5.279999999999999716e+01 9.557676999999999623e+01 6.171839999999999549e-01
5.300000000000000000e+01 1.103245000000000005e+02 5.561599999999999877e-01
5.320000000000000284e+01 1.216568999999999932e+02 5.122885000000000355e-01
5.339999999999999858e+01 1.363514999999999873e+02 4.541405000000000025e-01
5.360000000000000142e+01 1.781393999999999949e+02 2.775218999999999880e-01
5.379999999999999716e+01 1.693721999999999923e+02 3.246476999999999835e-01
