# #Pole, pwv = 300, elev = 50
# # Frequency(GHz)   T_b (K)
1.000000000000000000e+00 1.247733999999999899e+00 9.945770999999999917e-01
1.199999999999999956e+00 1.289018999999999915e+00 9.944193000000000060e-01
1.399999999999999911e+00 1.317609000000000030e+00 9.943161999999999834e-01
1.600000000000000089e+00 1.338918000000000053e+00 9.942444999999999755e-01
1.800000000000000044e+00 1.355817999999999968e+00 9.941917000000000115e-01
2.000000000000000000e+00 1.369933000000000067e+00 9.941508000000000012e-01
2.200000000000000178e+00 1.382230000000000070e+00 9.941176999999999930e-01
2.399999999999999911e+00 1.393313000000000024e+00 9.940898000000000234e-01
2.600000000000000089e+00 1.403574000000000099e+00 9.940653999999999879e-01
2.799999999999999822e+00 1.413262000000000018e+00 9.940432999999999630e-01
3.000000000000000000e+00 1.422574999999999923e+00 9.940227999999999842e-01
3.200000000000000178e+00 1.431634999999999991e+00 9.940033999999999814e-01
3.399999999999999911e+00 1.440536000000000039e+00 9.939845999999999959e-01
3.600000000000000089e+00 1.449346000000000023e+00 9.939660999999999635e-01
3.799999999999999822e+00 1.458118000000000025e+00 9.939476999999999896e-01
4.000000000000000000e+00 1.466892000000000085e+00 9.939291999999999572e-01
4.200000000000000178e+00 1.475697999999999954e+00 9.939105999999999774e-01
4.400000000000000355e+00 1.484563000000000077e+00 9.938915999999999862e-01
4.599999999999999645e+00 1.493506000000000000e+00 9.938723000000000418e-01
4.799999999999999822e+00 1.502544000000000102e+00 9.938523999999999692e-01
5.000000000000000000e+00 1.511703000000000019e+00 9.938320999999999961e-01
5.200000000000000178e+00 1.520950000000000024e+00 9.938112000000000057e-01
5.400000000000000355e+00 1.530332999999999943e+00 9.937897999999999454e-01
5.599999999999999645e+00 1.539859000000000089e+00 9.937677000000000316e-01
5.799999999999999822e+00 1.549493000000000009e+00 9.937449999999999894e-01
6.000000000000000000e+00 1.559260000000000090e+00 9.937217999999999885e-01
6.200000000000000178e+00 1.569175999999999904e+00 9.936977999999999644e-01
6.400000000000000355e+00 1.579245000000000010e+00 9.936732000000000342e-01
6.599999999999999645e+00 1.589469000000000021e+00 9.936477999999999700e-01
6.799999999999999822e+00 1.599860000000000060e+00 9.936217000000000521e-01
7.000000000000000000e+00 1.610419999999999963e+00 9.935948000000000002e-01
7.200000000000000178e+00 1.621156000000000041e+00 9.935671000000000364e-01
7.400000000000000355e+00 1.632073000000000107e+00 9.935384999999999911e-01
7.599999999999999645e+00 1.643175999999999970e+00 9.935091000000000339e-01
7.799999999999999822e+00 1.654470000000000107e+00 9.934789000000000536e-01
8.000000000000000000e+00 1.665961999999999943e+00 9.934477000000000446e-01
8.199999999999999289e+00 1.677661000000000069e+00 9.934155999999999542e-01
8.400000000000000355e+00 1.689578999999999942e+00 9.933826000000000045e-01
8.599999999999999645e+00 1.701740000000000030e+00 9.933484000000000202e-01
8.800000000000000711e+00 1.714198000000000111e+00 9.933127999999999957e-01
9.000000000000000000e+00 1.727216000000000085e+00 9.932746000000000075e-01
9.199999999999999289e+00 1.749244000000000021e+00 9.931980999999999726e-01
9.400000000000000355e+00 1.752998000000000056e+00 9.931995999999999603e-01
9.599999999999999645e+00 1.765845000000000109e+00 9.931624999999999481e-01
9.800000000000000711e+00 1.779436999999999935e+00 9.931218000000000545e-01
1.000000000000000000e+01 1.794013999999999998e+00 9.930763999999999703e-01
1.019999999999999929e+01 1.815015000000000045e+00 9.930012999999999757e-01
1.040000000000000036e+01 1.822608000000000006e+00 9.929885999999999990e-01
1.059999999999999964e+01 1.835930999999999980e+00 9.929495999999999878e-01
1.080000000000000071e+01 1.850359000000000087e+00 9.929050999999999849e-01
1.100000000000000000e+01 1.868678000000000061e+00 9.928422999999999554e-01
1.119999999999999929e+01 1.881337999999999955e+00 9.928065000000000362e-01
1.140000000000000036e+01 1.893887000000000098e+00 9.927713999999999706e-01
1.159999999999999964e+01 1.908400000000000096e+00 9.927270000000000261e-01
1.180000000000000071e+01 1.923578000000000010e+00 9.926793999999999896e-01
1.200000000000000000e+01 1.939181999999999961e+00 9.926298999999999539e-01
1.219999999999999929e+01 1.955108999999999986e+00 9.925789999999999891e-01
1.240000000000000036e+01 1.971360000000000001e+00 9.925266000000000366e-01
1.259999999999999964e+01 1.987932000000000032e+00 9.924728000000000439e-01
1.280000000000000071e+01 2.004776999999999809e+00 9.924178000000000166e-01
1.300000000000000000e+01 2.021945999999999799e+00 9.923613000000000017e-01
1.319999999999999929e+01 2.039429000000000158e+00 9.923033999999999466e-01
1.340000000000000036e+01 2.057233000000000089e+00 9.922442000000000206e-01
1.359999999999999964e+01 2.075366999999999962e+00 9.921834999999999960e-01
1.380000000000000071e+01 2.093834000000000195e+00 9.921212999999999838e-01
1.400000000000000000e+01 2.112671000000000188e+00 9.920573999999999781e-01
1.419999999999999929e+01 2.131911999999999807e+00 9.919917999999999791e-01
1.440000000000000036e+01 2.151651000000000202e+00 9.919238999999999695e-01
1.459999999999999964e+01 2.172206000000000081e+00 9.918523000000000200e-01
1.480000000000000071e+01 2.196234000000000020e+00 9.917643999999999904e-01
1.500000000000000000e+01 2.214525000000000077e+00 9.917038000000000242e-01
1.519999999999999929e+01 2.233922999999999881e+00 9.916382999999999726e-01
1.540000000000000036e+01 2.255025999999999975e+00 9.915646999999999656e-01
1.559999999999999964e+01 2.276936000000000071e+00 9.914876000000000245e-01
1.580000000000000071e+01 2.299602000000000146e+00 9.914068999999999798e-01
1.600000000000000000e+01 2.323582000000000036e+00 9.913203000000000431e-01
1.619999999999999929e+01 2.350718000000000085e+00 9.912191000000000196e-01
1.639999999999999858e+01 2.370559999999999778e+00 9.911524000000000445e-01
1.660000000000000142e+01 2.394623999999999864e+00 9.910660999999999499e-01
1.680000000000000071e+01 2.419804000000000066e+00 9.909748999999999919e-01
1.700000000000000000e+01 2.445751000000000008e+00 9.908801999999999888e-01
1.719999999999999929e+01 2.472560999999999787e+00 9.907818000000000458e-01
1.739999999999999858e+01 2.500246000000000191e+00 9.906795999999999935e-01
1.760000000000000142e+01 2.528878999999999877e+00 9.905732999999999899e-01
1.780000000000000071e+01 2.558571000000000151e+00 9.904625000000000234e-01
1.800000000000000000e+01 2.589364000000000221e+00 9.903469000000000300e-01
1.819999999999999929e+01 2.621452000000000115e+00 9.902256999999999865e-01
1.839999999999999858e+01 2.654983000000000093e+00 9.900984000000000451e-01
1.860000000000000142e+01 2.690148000000000206e+00 9.899639999999999551e-01
1.880000000000000071e+01 2.727154000000000078e+00 9.898217999999999739e-01
1.900000000000000000e+01 2.766281000000000212e+00 9.896703999999999501e-01
1.919999999999999929e+01 2.807841999999999949e+00 9.895085999999999604e-01
1.939999999999999858e+01 2.852225999999999928e+00 9.893347999999999587e-01
1.960000000000000142e+01 2.899884999999999824e+00 9.891467999999999927e-01
1.980000000000000071e+01 2.951347999999999860e+00 9.889426000000000050e-01
2.000000000000000000e+01 3.007235000000000102e+00 9.887192999999999676e-01
2.019999999999999929e+01 3.068224999999999980e+00 9.884739999999999638e-01
2.039999999999999858e+01 3.135145000000000071e+00 9.882031999999999483e-01
2.060000000000000142e+01 3.208477999999999941e+00 9.879046999999999690e-01
2.080000000000000071e+01 3.289076000000000111e+00 9.875747000000000275e-01
2.100000000000000000e+01 3.377348000000000017e+00 9.872111999999999554e-01
2.119999999999999929e+01 3.473046000000000078e+00 9.868147999999999920e-01
2.139999999999999858e+01 3.574924999999999908e+00 9.863906000000000063e-01
2.160000000000000142e+01 3.680289000000000144e+00 9.859495999999999816e-01
2.180000000000000071e+01 3.784949000000000119e+00 9.855089000000000210e-01
2.200000000000000000e+01 3.885517000000000110e+00 9.850811999999999902e-01
2.219999999999999929e+01 4.018736999999999782e+00 9.844950000000000090e-01
2.239999999999999858e+01 3.998987000000000069e+00 9.846175000000000344e-01
2.260000000000000142e+01 3.989980000000000082e+00 9.846852000000000382e-01
2.280000000000000071e+01 3.974695000000000089e+00 9.847740000000000382e-01
2.300000000000000000e+01 3.953088999999999853e+00 9.848869000000000096e-01
2.319999999999999929e+01 3.929812999999999779e+00 9.850048999999999610e-01
2.339999999999999858e+01 3.908949999999999925e+00 9.851107000000000058e-01
2.360000000000000142e+01 3.894047000000000036e+00 9.851887999999999757e-01
2.380000000000000071e+01 3.895620999999999778e+00 9.851906000000000274e-01
2.400000000000000000e+01 3.880274000000000001e+00 9.852748000000000062e-01
2.419999999999999929e+01 3.873947999999999947e+00 9.853191000000000033e-01
2.439999999999999858e+01 3.877435999999999883e+00 9.853188000000000502e-01
2.460000000000000142e+01 3.887073000000000000e+00 9.852912000000000337e-01
2.480000000000000071e+01 3.901825000000000099e+00 9.852414000000000449e-01
2.500000000000000000e+01 3.921349999999999891e+00 9.851704999999999490e-01
2.519999999999999929e+01 3.944846000000000075e+00 9.850824999999999720e-01
2.539999999999999858e+01 3.971350000000000158e+00 9.849814000000000069e-01
2.560000000000000142e+01 4.009574999999999889e+00 9.848263000000000433e-01
2.580000000000000071e+01 4.032408000000000214e+00 9.847451000000000398e-01
2.600000000000000000e+01 4.062132000000000076e+00 9.846327000000000274e-01
2.619999999999999929e+01 4.096795000000000186e+00 9.844977000000000311e-01
2.639999999999999858e+01 4.134209000000000245e+00 9.843503999999999587e-01
2.660000000000000142e+01 4.173823999999999756e+00 9.841933999999999960e-01
2.680000000000000071e+01 4.215410000000000323e+00 9.840278000000000080e-01
2.700000000000000000e+01 4.258783000000000207e+00 9.838544000000000178e-01
2.719999999999999929e+01 4.303912999999999656e+00 9.836734000000000311e-01
2.739999999999999858e+01 4.351091000000000264e+00 9.834832000000000019e-01
2.760000000000000142e+01 4.399346000000000423e+00 9.832885000000000097e-01
2.780000000000000071e+01 4.449455999999999634e+00 9.830854999999999455e-01
2.800000000000000000e+01 4.500537999999999705e+00 9.828784999999999883e-01
2.819999999999999929e+01 4.553194000000000408e+00 9.826645999999999992e-01
2.839999999999999858e+01 4.607930999999999777e+00 9.824412999999999618e-01
2.860000000000000142e+01 4.664977999999999625e+00 9.822075000000000111e-01
2.880000000000000071e+01 4.726747999999999728e+00 9.819514000000000298e-01
2.900000000000000000e+01 4.799698000000000242e+00 9.816439999999999610e-01
2.919999999999999929e+01 4.843890000000000029e+00 9.814722000000000168e-01
2.939999999999999858e+01 4.904173000000000116e+00 9.812252999999999670e-01
2.960000000000000142e+01 4.969070000000000320e+00 9.809565999999999564e-01
2.980000000000000071e+01 5.040559000000000012e+00 9.806567000000000478e-01
3.000000000000000000e+01 5.142801999999999651e+00 9.802113999999999550e-01
3.019999999999999929e+01 5.220545000000000435e+00 9.798866999999999994e-01
3.039999999999999858e+01 5.248478000000000421e+00 9.797926999999999609e-01
3.060000000000000142e+01 5.314833000000000141e+00 9.795207000000000219e-01
3.080000000000000071e+01 5.376983000000000068e+00 9.792689999999999451e-01
3.100000000000000000e+01 5.447878000000000220e+00 9.789761000000000157e-01
3.119999999999999929e+01 5.522028999999999854e+00 9.786681000000000408e-01
3.139999999999999858e+01 5.598499000000000336e+00 9.783496000000000414e-01
3.160000000000000142e+01 5.677044999999999675e+00 9.780218000000000522e-01
3.180000000000000071e+01 5.757598999999999911e+00 9.776850000000000263e-01
3.200000000000000000e+01 5.840167000000000108e+00 9.773391999999999635e-01
3.220000000000000284e+01 5.924657999999999980e+00 9.769849000000000450e-01
3.239999999999999858e+01 6.011066999999999716e+00 9.766221999999999959e-01
3.260000000000000142e+01 6.099648000000000181e+00 9.762496999999999980e-01
3.279999999999999716e+01 6.190344999999999764e+00 9.758679000000000103e-01
3.300000000000000000e+01 6.283038000000000345e+00 9.754772999999999916e-01
3.320000000000000284e+01 6.377996999999999694e+00 9.750765999999999600e-01
3.339999999999999858e+01 6.475285999999999653e+00 9.746654999999999625e-01
3.360000000000000142e+01 6.574931000000000303e+00 9.742439999999999989e-01
3.379999999999999716e+01 6.676874999999999893e+00 9.738122999999999641e-01
3.400000000000000000e+01 6.781367000000000367e+00 9.733692999999999929e-01
3.420000000000000284e+01 6.888435999999999559e+00 9.729149000000000269e-01
3.439999999999999858e+01 6.998143999999999920e+00 9.724487000000000547e-01
3.460000000000000142e+01 7.110628000000000171e+00 9.719702000000000064e-01
3.479999999999999716e+01 7.226058000000000092e+00 9.714785999999999699e-01
3.500000000000000000e+01 7.344491999999999798e+00 9.709735999999999922e-01
3.520000000000000284e+01 7.465754999999999697e+00 9.704559999999999853e-01
3.539999999999999858e+01 7.590555000000000163e+00 9.699225999999999681e-01
3.560000000000000142e+01 7.719479999999999897e+00 9.693705000000000238e-01
3.579999999999999716e+01 7.854766999999999832e+00 9.687888000000000055e-01
3.600000000000000000e+01 8.027926000000000784e+00 9.680322000000000093e-01
3.620000000000000284e+01 8.128854000000000468e+00 9.676128000000000506e-01
3.639999999999999858e+01 8.263616999999999990e+00 9.670379999999999532e-01
3.660000000000000142e+01 8.406762000000000512e+00 9.664241999999999555e-01
3.679999999999999716e+01 8.555104000000000042e+00 9.657867999999999453e-01
3.700000000000000000e+01 8.708265000000000811e+00 9.651275999999999744e-01
3.720000000000000284e+01 8.866533999999999693e+00 9.644452999999999498e-01
3.739999999999999858e+01 9.031055999999999528e+00 9.637343999999999911e-01
3.760000000000000142e+01 9.206284999999999386e+00 9.629733000000000320e-01
3.779999999999999716e+01 9.441254000000000701e+00 9.619332000000000438e-01
3.800000000000000000e+01 9.559319999999999595e+00 9.614447999999999883e-01
3.820000000000000284e+01 9.724866999999999706e+00 9.607369999999999521e-01
3.839999999999999858e+01 9.905782999999999561e+00 9.599566999999999961e-01
3.860000000000000142e+01 1.009477000000000046e+01 9.591393999999999753e-01
3.879999999999999716e+01 1.029048000000000052e+01 9.582918000000000269e-01
3.900000000000000000e+01 1.049281000000000041e+01 9.574144999999999461e-01
3.920000000000000284e+01 1.070190999999999981e+01 9.565067999999999904e-01
3.939999999999999858e+01 1.092019999999999946e+01 9.555576000000000070e-01
3.960000000000000142e+01 1.113791999999999938e+01 9.546128999999999865e-01
3.979999999999999716e+01 1.136514000000000024e+01 9.536253999999999564e-01
4.000000000000000000e+01 1.160036000000000023e+01 9.526021000000000072e-01
4.020000000000000284e+01 1.184328999999999965e+01 9.515443999999999569e-01
4.039999999999999858e+01 1.209412999999999982e+01 9.504515999999999520e-01
4.060000000000000142e+01 1.235318000000000005e+01 9.493222000000000049e-01
4.079999999999999716e+01 1.262078999999999951e+01 9.481547999999999643e-01
4.100000000000000000e+01 1.289722000000000079e+01 9.469482999999999651e-01
4.120000000000000284e+01 1.318300999999999945e+01 9.457001000000000435e-01
4.139999999999999858e+01 1.347869000000000028e+01 9.444080999999999726e-01
4.160000000000000142e+01 1.378443000000000040e+01 9.430711999999999984e-01
4.179999999999999716e+01 1.410110000000000063e+01 9.416858000000000173e-01
4.200000000000000000e+01 1.442914999999999992e+01 9.402496999999999661e-01
4.220000000000000284e+01 1.476917000000000080e+01 9.387602999999999920e-01
4.239999999999999858e+01 1.512288000000000032e+01 9.372095000000000287e-01
4.260000000000000142e+01 1.549244000000000021e+01 9.355868999999999991e-01
4.279999999999999716e+01 1.590240000000000009e+01 9.337784999999999558e-01
4.300000000000000000e+01 1.626777999999999835e+01 9.321833000000000480e-01
4.320000000000000284e+01 1.666985000000000028e+01 9.304208999999999952e-01
4.339999999999999858e+01 1.709648999999999930e+01 9.285451000000000121e-01
4.360000000000000142e+01 1.757694000000000045e+01 9.264181999999999695e-01
4.379999999999999716e+01 1.800372000000000128e+01 9.245535000000000281e-01
4.400000000000000000e+01 1.845886000000000138e+01 9.225613999999999759e-01
4.420000000000000284e+01 1.894629000000000119e+01 9.204208000000000389e-01
4.439999999999999858e+01 1.945797999999999917e+01 9.181707999999999537e-01
4.460000000000000142e+01 1.999380999999999986e+01 9.158125000000000293e-01
4.479999999999999716e+01 2.056024000000000029e+01 9.133153999999999995e-01
4.500000000000000000e+01 2.113559000000000054e+01 9.107844999999999969e-01
4.520000000000000284e+01 2.173638000000000048e+01 9.081411000000000344e-01
4.539999999999999858e+01 2.236828999999999823e+01 9.053579999999999961e-01
4.560000000000000142e+01 2.302939999999999898e+01 9.024451000000000001e-01
4.579999999999999716e+01 2.372110999999999947e+01 8.993963999999999848e-01
4.600000000000000000e+01 2.444528999999999996e+01 8.962037999999999949e-01
4.620000000000000284e+01 2.520357999999999876e+01 8.928601000000000454e-01
4.639999999999999858e+01 2.599815999999999860e+01 8.893556000000000239e-01
4.660000000000000142e+01 2.683173999999999992e+01 8.856783999999999768e-01
4.679999999999999716e+01 2.770672000000000068e+01 8.818179999999999907e-01
4.700000000000000000e+01 2.862590000000000146e+01 8.777618999999999838e-01
4.720000000000000284e+01 2.959247999999999834e+01 8.734961999999999449e-01
4.739999999999999858e+01 3.060982999999999876e+01 8.690058999999999978e-01
4.760000000000000142e+01 3.168160999999999916e+01 8.642750000000000155e-01
4.779999999999999716e+01 3.281192000000000064e+01 8.592853000000000296e-01
4.800000000000000000e+01 3.400524999999999665e+01 8.540172000000000319e-01
4.820000000000000284e+01 3.526657000000000153e+01 8.484488000000000030e-01
4.839999999999999858e+01 3.660146000000000299e+01 8.425555000000000128e-01
4.860000000000000142e+01 3.801574999999999704e+01 8.363118999999999970e-01
4.879999999999999716e+01 3.951673999999999864e+01 8.296860000000000346e-01
4.900000000000000000e+01 4.111135999999999768e+01 8.226472000000000229e-01
4.920000000000000284e+01 4.280895999999999901e+01 8.151547000000000098e-01
4.939999999999999858e+01 4.461986999999999881e+01 8.071629999999999638e-01
4.960000000000000142e+01 4.655438999999999794e+01 7.986273000000000399e-01
4.979999999999999716e+01 4.862841000000000236e+01 7.894769999999999843e-01
5.000000000000000000e+01 5.087228999999999957e+01 7.795746000000000064e-01
5.020000000000000284e+01 5.325596999999999781e+01 7.690692000000000084e-01
5.039999999999999858e+01 5.583713000000000193e+01 7.576971999999999596e-01
5.060000000000000142e+01 5.863452000000000197e+01 7.453800000000000425e-01
5.079999999999999716e+01 6.169275999999999982e+01 7.319170000000000398e-01
5.100000000000000000e+01 6.514750999999999692e+01 7.166915999999999842e-01
5.120000000000000284e+01 6.873342999999999847e+01 7.009495999999999505e-01
5.139999999999999858e+01 7.287476999999999805e+01 6.827269999999999728e-01
5.160000000000000142e+01 7.744634000000000640e+01 6.626463000000000214e-01
5.179999999999999716e+01 8.253620999999999697e+01 6.403248999999999747e-01
5.200000000000000000e+01 8.904876000000000147e+01 6.114869000000000554e-01
5.220000000000000284e+01 9.487233000000000516e+01 5.862437999999999816e-01
5.239999999999999858e+01 1.025268999999999977e+02 5.526273999999999909e-01
5.260000000000000142e+01 1.116266999999999996e+02 5.125098999999999627e-01
5.279999999999999716e+01 1.202092999999999989e+02 4.755001999999999840e-01
5.300000000000000000e+01 1.326752999999999929e+02 4.202597000000000138e-01
5.320000000000000284e+01 1.431422000000000025e+02 3.754467000000000221e-01
5.339999999999999858e+01 1.556042999999999950e+02 3.216713999999999962e-01
5.360000000000000142e+01 1.831711999999999989e+02 1.993055999999999994e-01
5.379999999999999716e+01 1.818555000000000064e+02 2.095291999999999988e-01
