# #Atacama, pwv = 900, elev = 50
# # Frequency(GHz)   T_b (K)
1.000000000000000000e+00 8.410107999999999473e-01 9.966603000000000545e-01
1.199999999999999956e+00 8.598426999999999598e-01 9.966049000000000158e-01
1.399999999999999911e+00 8.736642999999999493e-01 9.965690000000000381e-01
1.600000000000000089e+00 8.847350999999999965e-01 9.965437999999999796e-01
1.800000000000000044e+00 8.941955000000000320e-01 9.965247999999999884e-01
2.000000000000000000e+00 9.026710000000000012e-01 9.965095999999999954e-01
2.200000000000000178e+00 9.105261999999999523e-01 9.964967000000000130e-01
2.399999999999999911e+00 9.179857999999999629e-01 9.964853999999999656e-01
2.600000000000000089e+00 9.251960999999999657e-01 9.964749000000000523e-01
2.799999999999999822e+00 9.322240000000000526e-01 9.964650000000000452e-01
3.000000000000000000e+00 9.391701999999999551e-01 9.964555000000000495e-01
3.200000000000000178e+00 9.460709000000000479e-01 9.964460000000000539e-01
3.399999999999999911e+00 9.529613999999999585e-01 9.964364999999999473e-01
3.600000000000000089e+00 9.598685999999999607e-01 9.964267999999999459e-01
3.799999999999999822e+00 9.668132999999999866e-01 9.964169999999999972e-01
4.000000000000000000e+00 9.738126000000000282e-01 9.964068999999999843e-01
4.200000000000000178e+00 9.808807999999999971e-01 9.963963999999999599e-01
4.400000000000000355e+00 9.880303999999999753e-01 9.963855999999999824e-01
4.599999999999999645e+00 9.952727999999999575e-01 9.963743000000000460e-01
4.799999999999999822e+00 1.002618999999999927e+00 9.963625999999999872e-01
5.000000000000000000e+00 1.010102000000000055e+00 9.963503000000000220e-01
5.200000000000000178e+00 1.017635999999999985e+00 9.963376999999999928e-01
5.400000000000000355e+00 1.025296999999999903e+00 9.963246000000000047e-01
5.599999999999999645e+00 1.033045999999999909e+00 9.963109999999999467e-01
5.799999999999999822e+00 1.040817000000000103e+00 9.962973999999999997e-01
6.000000000000000000e+00 1.048624999999999918e+00 9.962834999999999885e-01
6.200000000000000178e+00 1.056499999999999995e+00 9.962693999999999717e-01
6.400000000000000355e+00 1.064467000000000052e+00 9.962547999999999959e-01
6.599999999999999645e+00 1.072540000000000049e+00 9.962396999999999503e-01
6.799999999999999822e+00 1.080740000000000034e+00 9.962242000000000042e-01
7.000000000000000000e+00 1.089072999999999958e+00 9.962079999999999824e-01
7.200000000000000178e+00 1.097545999999999911e+00 9.961913000000000018e-01
7.400000000000000355e+00 1.106163000000000007e+00 9.961738999999999455e-01
7.599999999999999645e+00 1.114932000000000034e+00 9.961558999999999831e-01
7.799999999999999822e+00 1.123857000000000106e+00 9.961373000000000033e-01
8.000000000000000000e+00 1.132946999999999926e+00 9.961179000000000006e-01
8.199999999999999289e+00 1.142207999999999890e+00 9.960978999999999806e-01
8.400000000000000355e+00 1.151650000000000063e+00 9.960771000000000486e-01
8.599999999999999645e+00 1.161286000000000040e+00 9.960554999999999826e-01
8.800000000000000711e+00 1.171157999999999921e+00 9.960328999999999988e-01
9.000000000000000000e+00 1.181567999999999952e+00 9.960078999999999461e-01
9.199999999999999289e+00 1.206836000000000020e+00 9.959211000000000036e-01
9.400000000000000355e+00 1.202159999999999895e+00 9.959592999999999918e-01
9.599999999999999645e+00 1.212433000000000094e+00 9.959352000000000205e-01
9.800000000000000711e+00 1.223376000000000019e+00 9.959082000000000212e-01
1.000000000000000000e+01 1.235168000000000044e+00 9.958774000000000237e-01
1.019999999999999929e+01 1.257727000000000039e+00 9.957994999999999486e-01
1.040000000000000036e+01 1.257954999999999934e+00 9.958192999999999628e-01
1.059999999999999964e+01 1.268321000000000032e+00 9.957951000000000441e-01
1.080000000000000071e+01 1.278998000000000079e+00 9.957692000000000210e-01
1.100000000000000000e+01 1.295231999999999939e+00 9.957186000000000092e-01
1.119999999999999929e+01 1.303361999999999910e+00 9.957042000000000392e-01
1.140000000000000036e+01 1.312175000000000091e+00 9.956869999999999887e-01
1.159999999999999964e+01 1.323334999999999928e+00 9.956593999999999722e-01
1.180000000000000071e+01 1.335067000000000004e+00 9.956293000000000504e-01
1.200000000000000000e+01 1.347148000000000012e+00 9.955977999999999772e-01
1.219999999999999929e+01 1.359480999999999939e+00 9.955652000000000390e-01
1.240000000000000036e+01 1.372093000000000007e+00 9.955315000000000136e-01
1.259999999999999964e+01 1.385016000000000025e+00 9.954965000000000064e-01
1.280000000000000071e+01 1.398160000000000069e+00 9.954606999999999761e-01
1.300000000000000000e+01 1.411640999999999924e+00 9.954235000000000166e-01
1.319999999999999929e+01 1.425435999999999925e+00 9.953851000000000226e-01
1.340000000000000036e+01 1.439548999999999968e+00 9.953454000000000468e-01
1.359999999999999964e+01 1.453982000000000108e+00 9.953045000000000364e-01
1.380000000000000071e+01 1.468739999999999934e+00 9.952623000000000442e-01
1.400000000000000000e+01 1.483872999999999998e+00 9.952185999999999533e-01
1.419999999999999929e+01 1.499419999999999975e+00 9.951733000000000384e-01
1.440000000000000036e+01 1.515478000000000103e+00 9.951259999999999550e-01
1.459999999999999964e+01 1.532372999999999985e+00 9.950750999999999902e-01
1.480000000000000071e+01 1.554802999999999935e+00 9.949999999999999956e-01
1.500000000000000000e+01 1.568100999999999967e+00 9.949656000000000056e-01
1.519999999999999929e+01 1.584146999999999972e+00 9.949196000000000151e-01
1.540000000000000036e+01 1.602301999999999893e+00 9.948645000000000405e-01
1.559999999999999964e+01 1.621383999999999936e+00 9.948055999999999566e-01
1.580000000000000071e+01 1.641361999999999988e+00 9.947430999999999912e-01
1.600000000000000000e+01 1.663003999999999927e+00 9.946736000000000466e-01
1.619999999999999929e+01 1.690833999999999948e+00 9.945775999999999506e-01
1.639999999999999858e+01 1.706183000000000005e+00 9.945370000000000044e-01
1.660000000000000142e+01 1.729082000000000008e+00 9.944638999999999562e-01
1.680000000000000071e+01 1.753643999999999981e+00 9.943840000000000456e-01
1.700000000000000000e+01 1.779454000000000091e+00 9.942995000000000028e-01
1.719999999999999929e+01 1.806885999999999992e+00 9.942085999999999979e-01
1.739999999999999858e+01 1.836049999999999960e+00 9.941111999999999727e-01
1.760000000000000142e+01 1.867189999999999905e+00 9.940061999999999509e-01
1.780000000000000071e+01 1.900641999999999943e+00 9.938924000000000092e-01
1.800000000000000000e+01 1.936638000000000082e+00 9.937690000000000135e-01
1.819999999999999929e+01 1.975732000000000044e+00 9.936336999999999531e-01
1.839999999999999858e+01 2.018435999999999897e+00 9.934846999999999984e-01
1.860000000000000142e+01 2.065411999999999804e+00 9.933193999999999635e-01
1.880000000000000071e+01 2.117433999999999816e+00 9.931349000000000427e-01
1.900000000000000000e+01 2.175533999999999857e+00 9.929272000000000098e-01
1.919999999999999929e+01 2.240946000000000105e+00 9.926916000000000073e-01
1.939999999999999858e+01 2.315242000000000022e+00 9.924220000000000264e-01
1.960000000000000142e+01 2.400373999999999786e+00 9.921109000000000178e-01
1.980000000000000071e+01 2.498784000000000116e+00 9.917489000000000443e-01
2.000000000000000000e+01 2.613531000000000049e+00 9.913241999999999887e-01
2.019999999999999929e+01 2.748352000000000128e+00 9.908221000000000389e-01
2.039999999999999858e+01 2.907947000000000060e+00 9.902242999999999462e-01
2.060000000000000142e+01 3.097624000000000155e+00 9.895100000000000007e-01
2.080000000000000071e+01 3.323958999999999886e+00 9.886528999999999456e-01
2.100000000000000000e+01 3.593580000000000219e+00 9.876260000000000039e-01
2.119999999999999929e+01 3.911525999999999836e+00 9.864074999999999926e-01
2.139999999999999858e+01 4.278023000000000131e+00 9.849932000000000132e-01
2.160000000000000142e+01 4.682744999999999713e+00 9.834190000000000431e-01
2.180000000000000071e+01 5.096504000000000367e+00 9.817939999999999445e-01
2.200000000000000000e+01 5.463989999999999903e+00 9.803334000000000215e-01
2.219999999999999929e+01 5.740136999999999823e+00 9.792098999999999664e-01
2.239999999999999858e+01 5.692940000000000111e+00 9.794511999999999663e-01
2.260000000000000142e+01 5.496648000000000422e+00 9.802786999999999473e-01
2.280000000000000071e+01 5.209615999999999580e+00 9.814471000000000167e-01
2.300000000000000000e+01 4.893341000000000385e+00 9.827135999999999649e-01
2.319999999999999929e+01 4.588383000000000322e+00 9.839229999999999920e-01
2.339999999999999858e+01 4.315164000000000222e+00 9.849995999999999752e-01
2.360000000000000142e+01 4.081833999999999740e+00 9.859145999999999743e-01
2.380000000000000071e+01 3.903613000000000000e+00 9.866023999999999905e-01
2.400000000000000000e+01 3.726589000000000151e+00 9.873039999999999594e-01
2.419999999999999929e+01 3.587781000000000109e+00 9.878525000000000222e-01
2.439999999999999858e+01 3.479277999999999871e+00 9.882798999999999889e-01
2.460000000000000142e+01 3.392837999999999798e+00 9.886213000000000362e-01
2.480000000000000071e+01 3.324377000000000137e+00 9.888928999999999636e-01
2.500000000000000000e+01 3.271043000000000145e+00 9.891058000000000350e-01
2.519999999999999929e+01 3.230278999999999900e+00 9.892701999999999884e-01
2.539999999999999858e+01 3.198876999999999970e+00 9.893990999999999758e-01
2.560000000000000142e+01 3.189817000000000125e+00 9.894340000000000357e-01
2.580000000000000071e+01 3.160962000000000049e+00 9.895614000000000354e-01
2.600000000000000000e+01 3.147415000000000074e+00 9.896249999999999769e-01
2.619999999999999929e+01 3.142167000000000154e+00 9.896546000000000509e-01
2.639999999999999858e+01 3.142068999999999779e+00 9.896641999999999939e-01
2.660000000000000142e+01 3.146152999999999977e+00 9.896574999999999678e-01
2.680000000000000071e+01 3.153795000000000126e+00 9.896371000000000473e-01
2.700000000000000000e+01 3.164464999999999861e+00 9.896049999999999569e-01
2.719999999999999929e+01 3.177890999999999799e+00 9.895623000000000058e-01
2.739999999999999858e+01 3.194496000000000002e+00 9.895068999999999670e-01
2.760000000000000142e+01 3.212490999999999985e+00 9.894467000000000123e-01
2.780000000000000071e+01 3.233349000000000029e+00 9.893748999999999461e-01
2.800000000000000000e+01 3.255126999999999882e+00 9.893001000000000156e-01
2.819999999999999929e+01 3.278866999999999976e+00 9.892176999999999776e-01
2.839999999999999858e+01 3.305060999999999805e+00 9.891252999999999851e-01
2.860000000000000142e+01 3.333540999999999865e+00 9.890235000000000554e-01
2.880000000000000071e+01 3.367218999999999962e+00 9.888991000000000309e-01
2.900000000000000000e+01 3.422111999999999821e+00 9.886825000000000196e-01
2.919999999999999929e+01 3.427589999999999915e+00 9.886848000000000303e-01
2.939999999999999858e+01 3.459579999999999878e+00 9.885707000000000244e-01
2.960000000000000142e+01 3.495460000000000012e+00 9.884397000000000322e-01
2.980000000000000071e+01 3.536935000000000162e+00 9.882836999999999872e-01
3.000000000000000000e+01 3.624337999999999838e+00 9.879240000000000244e-01
3.019999999999999929e+01 3.681725999999999832e+00 9.877036000000000149e-01
3.039999999999999858e+01 3.658007000000000009e+00 9.878363000000000005e-01
3.060000000000000142e+01 3.698155999999999999e+00 9.876903000000000210e-01
3.080000000000000071e+01 3.729356000000000115e+00 9.875844999999999763e-01
3.100000000000000000e+01 3.770817999999999781e+00 9.874332000000000109e-01
3.119999999999999929e+01 3.814686000000000021e+00 9.872716000000000269e-01
3.139999999999999858e+01 3.860142000000000184e+00 9.871033000000000168e-01
3.160000000000000142e+01 3.907027999999999945e+00 9.869291999999999510e-01
3.180000000000000071e+01 3.955299999999999816e+00 9.867493999999999987e-01
3.200000000000000000e+01 4.004997000000000362e+00 9.865637999999999908e-01
3.220000000000000284e+01 4.055931000000000175e+00 9.863731999999999500e-01
3.239999999999999858e+01 4.108050000000000423e+00 9.861779000000000517e-01
3.260000000000000142e+01 4.161725999999999814e+00 9.859761000000000220e-01
3.279999999999999716e+01 4.216821000000000375e+00 9.857685999999999948e-01
3.300000000000000000e+01 4.273104000000000013e+00 9.855563999999999991e-01
3.320000000000000284e+01 4.330883000000000038e+00 9.853380000000000472e-01
3.339999999999999858e+01 4.390213000000000143e+00 9.851132999999999695e-01
3.360000000000000142e+01 4.451080000000000148e+00 9.848824000000000467e-01
3.379999999999999716e+01 4.513323999999999891e+00 9.846458000000000155e-01
3.400000000000000000e+01 4.577243000000000173e+00 9.844024000000000107e-01
3.420000000000000284e+01 4.642797999999999981e+00 9.841524000000000383e-01
3.439999999999999858e+01 4.709992999999999874e+00 9.838955999999999813e-01
3.460000000000000142e+01 4.778952000000000311e+00 9.836316000000000503e-01
3.479999999999999716e+01 4.849845000000000184e+00 9.833596000000000004e-01
3.500000000000000000e+01 4.922673999999999772e+00 9.830797000000000008e-01
3.520000000000000284e+01 4.996900000000000119e+00 9.827941999999999512e-01
3.539999999999999858e+01 5.073495000000000310e+00 9.824988000000000055e-01
3.560000000000000142e+01 5.152826000000000128e+00 9.821917999999999482e-01
3.579999999999999716e+01 5.237033000000000271e+00 9.818634000000000528e-01
3.600000000000000000e+01 5.387279999999999625e+00 9.812461999999999573e-01
3.620000000000000284e+01 5.406728000000000200e+00 9.812041000000000235e-01
3.639999999999999858e+01 5.487235000000000085e+00 9.808959999999999901e-01
3.660000000000000142e+01 5.575037000000000020e+00 9.805555999999999717e-01
3.679999999999999716e+01 5.666188000000000002e+00 9.802009000000000416e-01
3.700000000000000000e+01 5.760328000000000337e+00 9.798337999999999770e-01
3.720000000000000284e+01 5.857620999999999967e+00 9.794534000000000296e-01
3.739999999999999858e+01 5.958933000000000035e+00 9.790556999999999732e-01
3.760000000000000142e+01 6.068762000000000434e+00 9.786202000000000512e-01
3.779999999999999716e+01 6.278489999999999682e+00 9.777434000000000403e-01
3.800000000000000000e+01 6.289209999999999745e+00 9.777504000000000195e-01
3.820000000000000284e+01 6.385894000000000403e+00 9.773798999999999682e-01
3.839999999999999858e+01 6.496661999999999715e+00 9.769463999999999926e-01
3.860000000000000142e+01 6.612849999999999895e+00 9.764895000000000103e-01
3.879999999999999716e+01 6.733244000000000007e+00 9.760149999999999659e-01
3.900000000000000000e+01 6.857922000000000295e+00 9.755224999999999591e-01
3.920000000000000284e+01 6.987147000000000219e+00 9.750111000000000194e-01
3.939999999999999858e+01 7.125420000000000087e+00 9.744606999999999575e-01
3.960000000000000142e+01 7.254859999999999864e+00 9.739510999999999585e-01
3.979999999999999716e+01 7.394089000000000134e+00 9.733994999999999731e-01
4.000000000000000000e+01 7.538687999999999612e+00 9.728253999999999513e-01
4.020000000000000284e+01 7.688101999999999769e+00 9.722313999999999679e-01
4.039999999999999858e+01 7.842380000000000351e+00 9.716173999999999644e-01
4.060000000000000142e+01 8.001753000000000782e+00 9.709824000000000233e-01
4.079999999999999716e+01 8.166460000000000719e+00 9.703254999999999519e-01
4.100000000000000000e+01 8.336429000000000755e+00 9.696470000000000367e-01
4.120000000000000284e+01 8.512280000000000513e+00 9.689442999999999806e-01
4.139999999999999858e+01 8.694414000000000087e+00 9.682157999999999598e-01
4.160000000000000142e+01 8.882521999999999807e+00 9.674625999999999504e-01
4.179999999999999716e+01 9.077597000000000804e+00 9.666808000000000067e-01
4.200000000000000000e+01 9.279776999999999276e+00 9.658695999999999948e-01
4.220000000000000284e+01 9.489188000000000400e+00 9.650286999999999615e-01
4.239999999999999858e+01 9.707760999999999640e+00 9.641494000000000453e-01
4.260000000000000142e+01 9.936726000000000170e+00 9.632258999999999682e-01
4.279999999999999716e+01 1.022134999999999927e+01 9.620585999999999860e-01
4.300000000000000000e+01 1.041756999999999955e+01 9.612867999999999968e-01
4.320000000000000284e+01 1.066405999999999921e+01 9.602964999999999973e-01
4.339999999999999858e+01 1.092770999999999937e+01 9.592308000000000501e-01
4.360000000000000142e+01 1.126074000000000019e+01 9.578573000000000226e-01
4.379999999999999716e+01 1.149808999999999948e+01 9.569189999999999641e-01
4.400000000000000000e+01 1.177102000000000004e+01 9.558273000000000463e-01
4.420000000000000284e+01 1.207240999999999964e+01 9.546111999999999931e-01
4.439999999999999858e+01 1.239016999999999946e+01 9.533260000000000067e-01
4.460000000000000142e+01 1.272399000000000058e+01 9.519735000000000280e-01
4.479999999999999716e+01 1.308370999999999995e+01 9.505097000000000129e-01
4.500000000000000000e+01 1.343711000000000055e+01 9.490811999999999582e-01
4.520000000000000284e+01 1.380949999999999989e+01 9.475742000000000331e-01
4.539999999999999858e+01 1.420442000000000071e+01 9.459722000000000408e-01
4.560000000000000142e+01 1.461800999999999995e+01 9.442933000000000021e-01
4.579999999999999716e+01 1.505153999999999925e+01 9.425324999999999953e-01
4.600000000000000000e+01 1.550648999999999944e+01 9.406835999999999531e-01
4.620000000000000284e+01 1.598361000000000054e+01 9.387438999999999645e-01
4.639999999999999858e+01 1.648435999999999879e+01 9.367073999999999678e-01
4.660000000000000142e+01 1.701110999999999862e+01 9.345641999999999561e-01
4.679999999999999716e+01 1.756529000000000096e+01 9.323086999999999902e-01
4.700000000000000000e+01 1.814891000000000076e+01 9.299325999999999981e-01
4.720000000000000284e+01 1.876438999999999879e+01 9.274259999999999726e-01
4.739999999999999858e+01 1.941418000000000177e+01 9.247790000000000177e-01
4.760000000000000142e+01 2.010098999999999947e+01 9.219806000000000390e-01
4.779999999999999716e+01 2.082792999999999850e+01 9.190182000000000073e-01
4.800000000000000000e+01 2.159842000000000084e+01 9.158777000000000168e-01
4.820000000000000284e+01 2.241634000000000171e+01 9.125436000000000103e-01
4.839999999999999858e+01 2.328622000000000014e+01 9.089971999999999497e-01
4.860000000000000142e+01 2.421251000000000175e+01 9.052210000000000534e-01
4.879999999999999716e+01 2.520184000000000069e+01 9.011877000000000359e-01
4.900000000000000000e+01 2.625917000000000101e+01 8.968776000000000526e-01
4.920000000000000284e+01 2.739329999999999998e+01 8.922548999999999619e-01
4.939999999999999858e+01 2.861383999999999972e+01 8.872803000000000218e-01
4.960000000000000142e+01 2.992843999999999838e+01 8.819240000000000412e-01
4.979999999999999716e+01 3.135441000000000145e+01 8.761139000000000010e-01
5.000000000000000000e+01 3.293739000000000061e+01 8.696521999999999863e-01
5.020000000000000284e+01 3.459550000000000125e+01 8.629158999999999580e-01
5.039999999999999858e+01 3.644765000000000299e+01 8.553882000000000430e-01
5.060000000000000142e+01 3.848548000000000258e+01 8.471191000000000138e-01
5.079999999999999716e+01 4.077394000000000318e+01 8.378352000000000022e-01
5.100000000000000000e+01 4.353844999999999743e+01 8.265571999999999919e-01
5.120000000000000284e+01 4.626360999999999990e+01 8.156023000000000023e-01
5.139999999999999858e+01 4.970020000000000238e+01 8.016607000000000038e-01
5.160000000000000142e+01 5.357466000000000150e+01 7.860044999999999948e-01
5.179999999999999716e+01 5.802268000000000114e+01 7.680981000000000058e-01
5.200000000000000000e+01 6.458220000000000027e+01 7.410063999999999540e-01
5.220000000000000284e+01 6.953816999999999382e+01 7.217040999999999595e-01
5.239999999999999858e+01 7.726125999999999294e+01 6.904282000000000474e-01
5.260000000000000142e+01 8.698216999999999643e+01 6.506644999999999790e-01
5.279999999999999716e+01 9.554573000000000604e+01 6.172992000000000479e-01
5.300000000000000000e+01 1.102964000000000055e+02 5.562631000000000103e-01
5.320000000000000284e+01 1.216310000000000002e+02 5.123826999999999687e-01
5.339999999999999858e+01 1.363285999999999945e+02 4.542230999999999908e-01
5.360000000000000142e+01 1.781242000000000019e+02 2.775715999999999739e-01
5.379999999999999716e+01 1.693557000000000130e+02 3.247049000000000185e-01
